    Te [eV]    Lz of He [Wcm^3]     Lz is for total radiated power
    2.51189E+02    2.16370E-30
    2.54097E+02    2.16404E-30
    2.57040E+02    2.16451E-30
    2.60016E+02    2.16506E-30
    2.63027E+02    2.16573E-30
    2.66073E+02    2.16652E-30
    2.69153E+02    2.16744E-30
    2.72270E+02    2.16848E-30
    2.75423E+02    2.16963E-30
    2.78612E+02    2.17091E-30
    2.81838E+02    2.17231E-30
    2.85102E+02    2.17382E-30
    2.88403E+02    2.17545E-30
    2.91743E+02    2.17720E-30
    2.95121E+02    2.17904E-30
    2.98538E+02    2.18085E-30
    3.01995E+02    2.18277E-30
    3.05492E+02    2.18480E-30
    3.09030E+02    2.18694E-30
    3.12608E+02    2.18919E-30
    3.16228E+02    2.19155E-30
    3.19889E+02    2.19440E-30
    3.23594E+02    2.19719E-30
    3.27341E+02    2.20000E-30
    3.31131E+02    2.20291E-30
    3.34965E+02    2.20593E-30
    3.38844E+02    2.20905E-30
    3.42768E+02    2.21227E-30
    3.46737E+02    2.21559E-30
    3.50752E+02    2.21900E-30
    3.54813E+02    2.22252E-30
    3.58922E+02    2.22604E-30
    3.63078E+02    2.22963E-30
    3.67282E+02    2.23332E-30
    3.71535E+02    2.23711E-30
    3.75837E+02    2.24099E-30
    3.80189E+02    2.24496E-30
    3.84592E+02    2.24904E-30
    3.89045E+02    2.25320E-30
    3.93550E+02    2.25747E-30
    3.98107E+02    2.26182E-30
    4.02717E+02    2.26624E-30
    4.07380E+02    2.27072E-30
    4.12098E+02    2.27530E-30
    4.16869E+02    2.27998E-30
    4.21697E+02    2.28475E-30
    4.26580E+02    2.28961E-30
    4.31519E+02    2.29446E-30
    4.36516E+02    2.29926E-30
    4.41570E+02    2.30415E-30
    4.46684E+02    2.30919E-30
    4.51856E+02    2.31434E-30
    4.57088E+02    2.31959E-30
    4.62381E+02    2.32492E-30
    4.67735E+02    2.33034E-30
    4.73151E+02    2.33584E-30
    4.78630E+02    2.34144E-30
    4.84172E+02    2.34711E-30
    4.89779E+02    2.35288E-30
    4.95450E+02    2.35873E-30
    5.01187E+02    2.36467E-30
    5.06991E+02    2.37068E-30
    5.12861E+02    2.37678E-30
    5.18800E+02    2.38296E-30
    5.24807E+02    2.38921E-30
    5.30884E+02    2.39555E-30
    5.37032E+02    2.40198E-30
    5.43250E+02    2.40848E-30
    5.49541E+02    2.41508E-30
    5.55904E+02    2.42175E-30
    5.62341E+02    2.42851E-30
    5.68853E+02    2.43536E-30
    5.75440E+02    2.44229E-30
    5.82103E+02    2.44930E-30
    5.88844E+02    2.45640E-30
    5.95662E+02    2.46358E-30
    6.02560E+02    2.47084E-30
    6.09537E+02    2.47819E-30
    6.16595E+02    2.48562E-30
    6.23735E+02    2.49314E-30
    6.30957E+02    2.50077E-30
    6.38263E+02    2.50848E-30
    6.45654E+02    2.51627E-30
    6.53131E+02    2.52414E-30
    6.60693E+02    2.53209E-30
    6.68344E+02    2.54012E-30
    6.76083E+02    2.54824E-30
    6.83912E+02    2.55644E-30
    6.91831E+02    2.56472E-30
    6.99842E+02    2.57308E-30
    7.07946E+02    2.58152E-30
    7.16143E+02    2.59004E-30
    7.24436E+02    2.59865E-30
    7.32825E+02    2.60734E-30
    7.41310E+02    2.61611E-30
    7.49894E+02    2.62496E-30
    7.58578E+02    2.63390E-30
    7.67362E+02    2.64293E-30
    7.76247E+02    2.65203E-30
    7.85236E+02    2.66103E-30
    7.94328E+02    2.67011E-30
    8.03526E+02    2.67927E-30
    8.12831E+02    2.68852E-30
    8.22243E+02    2.69785E-30
    8.31764E+02    2.70728E-30
    8.41395E+02    2.71679E-30
    8.51138E+02    2.72640E-30
    8.60994E+02    2.73609E-30
    8.70964E+02    2.74587E-30
    8.81049E+02    2.75576E-30
    8.91251E+02    2.76574E-30
    9.01571E+02    2.77582E-30
    9.12011E+02    2.78598E-30
    9.22571E+02    2.79628E-30
    9.33254E+02    2.80666E-30
    9.44061E+02    2.81713E-30
    9.54993E+02    2.82769E-30
    9.66051E+02    2.83833E-30
    9.77237E+02    2.84907E-30
    9.88553E+02    2.85991E-30
    1.00000E+03    2.87083E-30
    1.01158E+03    2.88184E-30
    1.02329E+03    2.89293E-30
    1.03514E+03    2.90412E-30
    1.04713E+03    2.91539E-30
    1.05925E+03    2.92676E-30
    1.07152E+03    2.93821E-30
    1.08393E+03    2.94975E-30
    1.09648E+03    2.96138E-30
    1.10917E+03    2.97308E-30
    1.12202E+03    2.98487E-30
    1.13501E+03    2.99675E-30
    1.14815E+03    3.00871E-30
    1.16145E+03    3.02077E-30
    1.17490E+03    3.03292E-30
    1.18850E+03    3.04515E-30
    1.20226E+03    3.05748E-30
    1.21619E+03    3.06988E-30
    1.23027E+03    3.08236E-30
    1.24451E+03    3.09493E-30
    1.25893E+03    3.10759E-30
    1.27350E+03    3.12034E-30
    1.28825E+03    3.13319E-30
    1.30317E+03    3.14613E-30
    1.31826E+03    3.15916E-30
    1.33352E+03    3.17227E-30
    1.34896E+03    3.18546E-30
    1.36458E+03    3.19874E-30
    1.38038E+03    3.21212E-30
    1.39637E+03    3.22559E-30
    1.41254E+03    3.23915E-30
    1.42889E+03    3.25281E-30
    1.44544E+03    3.26656E-30
    1.46218E+03    3.28040E-30
    1.47911E+03    3.29433E-30
    1.49624E+03    3.30837E-30
    1.51356E+03    3.32249E-30
    1.53109E+03    3.33670E-30
    1.54882E+03    3.35101E-30
    1.56675E+03    3.36541E-30
    1.58489E+03    3.37991E-30
    1.60325E+03    3.39450E-30
    1.62181E+03    3.40917E-30
    1.64059E+03    3.42392E-30
    1.65959E+03    3.43878E-30
    1.67880E+03    3.45373E-30
    1.69824E+03    3.46878E-30
    1.71791E+03    3.48392E-30
    1.73780E+03    3.49919E-30
    1.75792E+03    3.51455E-30
    1.77828E+03    3.53001E-30
    1.79887E+03    3.54557E-30
    1.81970E+03    3.56122E-30
    1.84077E+03    3.57697E-30
    1.86209E+03    3.59282E-30
    1.88365E+03    3.60877E-30
    1.90546E+03    3.62482E-30
    1.92752E+03    3.64096E-30
    1.94984E+03    3.65740E-30
    1.97242E+03    3.67398E-30
    1.99526E+03    3.69066E-30
    2.01837E+03    3.70744E-30
    2.04174E+03    3.72433E-30
    2.06538E+03    3.74132E-30
    2.08930E+03    3.75841E-30
    2.11349E+03    3.77561E-30
    2.13796E+03    3.79292E-30
    2.16272E+03    3.81033E-30
    2.18776E+03    3.82785E-30
    2.21309E+03    3.84547E-30
    2.23872E+03    3.86320E-30
    2.26464E+03    3.88104E-30
    2.29087E+03    3.89898E-30
    2.31739E+03    3.91703E-30
    2.34423E+03    3.93527E-30
    2.37137E+03    3.95369E-30
    2.39883E+03    3.97221E-30
    2.42661E+03    3.99085E-30
    2.45471E+03    4.00960E-30
    2.48313E+03    4.02846E-30
    2.51189E+03    4.04743E-30
    2.54097E+03    4.06652E-30
    2.57040E+03    4.08572E-30
    2.60016E+03    4.10504E-30
    2.63027E+03    4.12446E-30
    2.66073E+03    4.14401E-30
    2.69153E+03    4.16367E-30
    2.72270E+03    4.18344E-30
    2.75423E+03    4.20333E-30
    2.78612E+03    4.22334E-30
    2.81838E+03    4.24346E-30
    2.85102E+03    4.26368E-30
    2.88403E+03    4.28402E-30
    2.91743E+03    4.30448E-30
    2.95121E+03    4.32505E-30
    2.98538E+03    4.34575E-30
    3.01995E+03    4.36657E-30
    3.05492E+03    4.38750E-30
    3.09030E+03    4.40856E-30
    3.12608E+03    4.42974E-30
    3.16228E+03    4.45104E-30
    3.19890E+03    4.47247E-30
    3.23594E+03    4.49401E-30
    3.27341E+03    4.51569E-30
    3.31131E+03    4.53748E-30
    3.34965E+03    4.55940E-30
    3.38844E+03    4.58145E-30
    3.42768E+03    4.60363E-30
    3.46737E+03    4.62595E-30
    3.50752E+03    4.64839E-30
    3.54813E+03    4.67095E-30
    3.58922E+03    4.69365E-30
    3.63078E+03    4.71647E-30
    3.67282E+03    4.73943E-30
    3.71535E+03    4.76251E-30
    3.75837E+03    4.78572E-30
    3.80189E+03    4.80907E-30
    3.84592E+03    4.83254E-30
    3.89045E+03    4.85615E-30
    3.93550E+03    4.87990E-30
    3.98107E+03    4.90377E-30
    4.02717E+03    4.92778E-30
    4.07380E+03    4.95193E-30
    4.12098E+03    4.97637E-30
    4.16869E+03    5.00108E-30
    4.21696E+03    5.02593E-30
    4.26580E+03    5.05093E-30
    4.31519E+03    5.07606E-30
    4.36516E+03    5.10133E-30
    4.41570E+03    5.12675E-30
    4.46684E+03    5.15231E-30
    4.51856E+03    5.17802E-30
    4.57088E+03    5.20387E-30
    4.62381E+03    5.22987E-30
    4.67735E+03    5.25601E-30
    4.73151E+03    5.28230E-30
    4.78630E+03    5.30873E-30
    4.84172E+03    5.33531E-30
    4.89779E+03    5.36205E-30
    4.95450E+03    5.38893E-30
    5.01187E+03    5.41594E-30
    5.06991E+03    5.44311E-30
    5.12861E+03    5.47042E-30
    5.18800E+03    5.49789E-30
    5.24807E+03    5.52551E-30
    5.30884E+03    5.55329E-30
    5.37032E+03    5.58122E-30
    5.43250E+03    5.60930E-30
    5.49541E+03    5.63755E-30
    5.55904E+03    5.66595E-30
    5.62341E+03    5.69450E-30
    5.68853E+03    5.72322E-30
    5.75440E+03    5.75209E-30
    5.82103E+03    5.78112E-30
    5.88844E+03    5.81032E-30
    5.95662E+03    5.83967E-30
    6.02560E+03    5.86923E-30
    6.09537E+03    5.89896E-30
    6.16595E+03    5.92886E-30
    6.23735E+03    5.95892E-30
    6.30957E+03    5.98914E-30
    6.38263E+03    6.01954E-30
    6.45654E+03    6.05010E-30
    6.53131E+03    6.08082E-30
    6.60693E+03    6.11172E-30
    6.68344E+03    6.14279E-30
    6.76083E+03    6.17403E-30
    6.83912E+03    6.20544E-30
    6.91831E+03    6.23702E-30
    6.99842E+03    6.26878E-30
    7.07946E+03    6.30071E-30
    7.16143E+03    6.33282E-30
    7.24436E+03    6.36564E-30
    7.32825E+03    6.39905E-30
    7.41310E+03    6.43265E-30
    7.49894E+03    6.46643E-30
    7.58578E+03    6.50041E-30
    7.67361E+03    6.53458E-30
    7.76247E+03    6.56893E-30
    7.85236E+03    6.60349E-30
    7.94328E+03    6.63823E-30
    8.03526E+03    6.67317E-30
    8.12831E+03    6.70831E-30
    8.22243E+03    6.74365E-30
    8.31764E+03    6.77918E-30
    8.41395E+03    6.81491E-30
    8.51138E+03    6.85084E-30
    8.60994E+03    6.88697E-30
    8.70964E+03    6.92330E-30
    8.81049E+03    6.95982E-30
    8.91251E+03    6.99655E-30
    9.01571E+03    7.03348E-30
    9.12011E+03    7.07062E-30
    9.22571E+03    7.10797E-30
    9.33254E+03    7.14552E-30
    9.44061E+03    7.18329E-30
    9.54993E+03    7.22126E-30
    9.66051E+03    7.25944E-30
    9.77237E+03    7.29784E-30
    9.88553E+03    7.33645E-30
    1.00000E+04    7.37528E-30
    1.01158E+04    7.41433E-30
    1.02329E+04    7.45358E-30
    1.03514E+04    7.49306E-30
    1.04713E+04    7.53276E-30
    1.05925E+04    7.57272E-30
    1.07152E+04    7.61291E-30
    1.08393E+04    7.65331E-30
    1.09648E+04    7.69395E-30
    1.10917E+04    7.73480E-30
    1.12202E+04    7.77589E-30
    1.13501E+04    7.81720E-30
    1.14815E+04    7.85874E-30
    1.16145E+04    7.90052E-30
    1.17490E+04    7.94252E-30
    1.18850E+04    7.98476E-30
    1.20226E+04    8.02724E-30
    1.21619E+04    8.06995E-30
    1.23027E+04    8.11289E-30
    1.24451E+04    8.15607E-30
    1.25893E+04    8.19949E-30
    1.27350E+04    8.24320E-30
    1.28825E+04    8.28717E-30
    1.30317E+04    8.33139E-30
    1.31826E+04    8.37586E-30
    1.33352E+04    8.42057E-30
    1.34896E+04    8.46552E-30
    1.36458E+04    8.51073E-30
    1.38038E+04    8.55619E-30
    1.39637E+04    8.60190E-30
    1.41254E+04    8.64786E-30
    1.42889E+04    8.69407E-30
    1.44544E+04    8.74055E-30
    1.46218E+04    8.78728E-30
    1.47911E+04    8.83426E-30
    1.49624E+04    8.88151E-30
    1.51356E+04    8.92902E-30
    1.53109E+04    8.97678E-30
    1.54882E+04    9.02478E-30
    1.56675E+04    9.07305E-30
    1.58489E+04    9.12159E-30
    1.60325E+04    9.17039E-30
    1.62181E+04    9.21947E-30
    1.64059E+04    9.26881E-30
    1.65959E+04    9.31843E-30
    1.67880E+04    9.36832E-30
    1.69824E+04    9.41848E-30
    1.71791E+04    9.46892E-30
    1.73780E+04    9.51964E-30
    1.75792E+04    9.57064E-30
    1.77828E+04    9.62192E-30
    1.79887E+04    9.67348E-30
    1.81970E+04    9.72533E-30
    1.84077E+04    9.77746E-30
    1.86209E+04    9.82986E-30
    1.88365E+04    9.88255E-30
    1.90546E+04    9.93552E-30
    1.92752E+04    9.98879E-30
    1.94984E+04    1.00424E-29
    1.97242E+04    1.00962E-29
    1.99526E+04    1.01504E-29
    2.01837E+04    1.02048E-29
    2.04174E+04    1.02596E-29
    2.06538E+04    1.03146E-29
    2.08930E+04    1.03700E-29
    2.11349E+04    1.04256E-29
    2.13796E+04    1.04816E-29
    2.16272E+04    1.05379E-29
    2.18776E+04    1.05944E-29
    2.21309E+04    1.06513E-29
    2.23872E+04    1.07092E-29
    2.26464E+04    1.07678E-29
    2.29087E+04    1.08267E-29
    2.31739E+04    1.08860E-29
    2.34423E+04    1.09456E-29
    2.37137E+04    1.10055E-29
    2.39883E+04    1.10658E-29
    2.42661E+04    1.11264E-29
    2.45471E+04    1.11873E-29
    2.48313E+04    1.12486E-29
    2.51189E+04    1.13102E-29
    2.54097E+04    1.13722E-29
    2.57040E+04    1.14345E-29
    2.60016E+04    1.14972E-29
    2.63027E+04    1.15602E-29
    2.66073E+04    1.16235E-29
    2.69153E+04    1.16873E-29
    2.72270E+04    1.17515E-29
    2.75423E+04    1.18161E-29
    2.78612E+04    1.18810E-29
    2.81838E+04    1.19463E-29
    2.85102E+04    1.20119E-29
    2.88403E+04    1.20779E-29
    2.91743E+04    1.21443E-29
    2.95121E+04    1.22111E-29
    2.98538E+04    1.22782E-29
    3.01995E+04    1.23457E-29
    3.05492E+04    1.24136E-29
    3.09030E+04    1.24819E-29
    3.12608E+04    1.25505E-29
    3.16228E+04    1.26196E-29
    3.19890E+04    1.26890E-29
    3.23594E+04    1.27588E-29
    3.27341E+04    1.28290E-29
    3.31131E+04    1.28995E-29
    3.34965E+04    1.29705E-29
    3.38844E+04    1.30419E-29
    3.42768E+04    1.31136E-29
    3.46737E+04    1.31858E-29
    3.50752E+04    1.32584E-29
    3.54813E+04    1.33313E-29
    3.58922E+04    1.34047E-29
    3.63078E+04    1.34785E-29
    3.67282E+04    1.35527E-29
    3.71535E+04    1.36273E-29
    3.75837E+04    1.37023E-29
    3.80189E+04    1.37778E-29
    3.84592E+04    1.38536E-29
    3.89045E+04    1.39299E-29
    3.93550E+04    1.40067E-29
    3.98107E+04    1.40838E-29
    4.02717E+04    1.41613E-29
    4.07380E+04    1.42393E-29
    4.12098E+04    1.43178E-29
    4.16869E+04    1.43966E-29
    4.21696E+04    1.44759E-29
    4.26580E+04    1.45557E-29
    4.31519E+04    1.46359E-29
    4.36516E+04    1.47165E-29
    4.41570E+04    1.47976E-29
    4.46684E+04    1.48792E-29
    4.51856E+04    1.49612E-29
    4.57088E+04    1.50436E-29
    4.62381E+04    1.51265E-29
    4.67735E+04    1.52099E-29
    4.73151E+04    1.52937E-29
    4.78630E+04    1.53780E-29
    4.84172E+04    1.54628E-29
    4.89779E+04    1.55480E-29
    4.95450E+04    1.56337E-29
    5.01187E+04    1.57199E-29
    5.06991E+04    1.58065E-29
    5.12861E+04    1.58937E-29
    5.18800E+04    1.59813E-29
    5.24807E+04    1.60694E-29
    5.30884E+04    1.61580E-29
    5.37032E+04    1.62471E-29
    5.43250E+04    1.63367E-29
    5.49541E+04    1.64268E-29
    5.55904E+04    1.65174E-29
    5.62341E+04    1.66085E-29
    5.68853E+04    1.67001E-29
    5.75440E+04    1.67922E-29
    5.82103E+04    1.68848E-29
    5.88844E+04    1.69779E-29
    5.95662E+04    1.70716E-29
    6.02560E+04    1.71658E-29
    6.09537E+04    1.72605E-29
    6.16595E+04    1.73557E-29
    6.23735E+04    1.74514E-29
    6.30957E+04    1.75477E-29
    6.38263E+04    1.76446E-29
    6.45654E+04    1.77419E-29
    6.53131E+04    1.78398E-29
    6.60693E+04    1.79383E-29
    6.68344E+04    1.80373E-29
    6.76083E+04    1.81368E-29
    6.83912E+04    1.82369E-29
    6.91831E+04    1.83375E-29
    6.99842E+04    1.84387E-29
    7.07946E+04    1.85405E-29
    7.16143E+04    1.86428E-29
    7.24436E+04    1.87456E-29
    7.32825E+04    1.88491E-29
    7.41310E+04    1.89531E-29
    7.49894E+04    1.90577E-29
    7.58578E+04    1.91629E-29
    7.67361E+04    1.92686E-29
    7.76247E+04    1.93750E-29
    7.85236E+04    1.94819E-29
    7.94328E+04    1.95894E-29
    8.03526E+04    1.96976E-29
    8.12831E+04    1.98063E-29
    8.22243E+04    1.99156E-29
    8.31764E+04    2.00256E-29
    8.41395E+04    2.01362E-29
    8.51138E+04    2.02473E-29
    8.60994E+04    2.03591E-29
    8.70964E+04    2.04715E-29
    8.81049E+04    2.05846E-29
    8.91251E+04    2.06983E-29
    9.01571E+04    2.08126E-29
    9.12011E+04    2.09275E-29
    9.22571E+04    2.10431E-29
    9.33254E+04    2.11593E-29
    9.44061E+04    2.12761E-29
    9.54993E+04    2.13937E-29
    9.66051E+04    2.15118E-29
    9.77237E+04    2.16306E-29
    9.88553E+04    2.17501E-29
