    Te [eV]     Lz of N [Wcm^3]     Lz is for total radiated power
    2.51189E+02    9.60669E-28
    2.54097E+02    9.44010E-28
    2.57040E+02    9.27547E-28
    2.60016E+02    9.06728E-28
    2.63027E+02    8.86252E-28
    2.66073E+02    8.66253E-28
    2.69153E+02    8.46728E-28
    2.72270E+02    8.27667E-28
    2.75423E+02    8.09062E-28
    2.78612E+02    7.90905E-28
    2.81838E+02    7.73188E-28
    2.85102E+02    7.55902E-28
    2.88403E+02    7.39040E-28
    2.91743E+02    7.22592E-28
    2.95121E+02    7.06549E-28
    2.98538E+02    6.90905E-28
    3.01995E+02    6.75646E-28
    3.05492E+02    6.60769E-28
    3.09030E+02    6.46262E-28
    3.12608E+02    6.32120E-28
    3.16228E+02    6.18330E-28
    3.19889E+02    6.06857E-28
    3.23594E+02    5.94087E-28
    3.27341E+02    5.80944E-28
    3.31131E+02    5.68111E-28
    3.34965E+02    5.55584E-28
    3.38844E+02    5.43356E-28
    3.42768E+02    5.31420E-28
    3.46737E+02    5.19773E-28
    3.50752E+02    5.08407E-28
    3.54813E+02    4.97317E-28
    3.58922E+02    4.86497E-28
    3.63078E+02    4.75941E-28
    3.67282E+02    4.65645E-28
    3.71535E+02    4.55604E-28
    3.75837E+02    4.45808E-28
    3.80189E+02    4.36257E-28
    3.84592E+02    4.26943E-28
    3.89045E+02    4.17861E-28
    3.93550E+02    4.09007E-28
    3.98107E+02    4.00374E-28
    4.02717E+02    3.91306E-28
    4.07380E+02    3.82018E-28
    4.12098E+02    3.72999E-28
    4.16869E+02    3.64241E-28
    4.21697E+02    3.55738E-28
    4.26580E+02    3.47481E-28
    4.31519E+02    3.39464E-28
    4.36516E+02    3.31679E-28
    4.41570E+02    3.24120E-28
    4.46684E+02    3.18429E-28
    4.51856E+02    3.14005E-28
    4.57088E+02    3.09665E-28
    4.62381E+02    3.05406E-28
    4.67735E+02    3.01228E-28
    4.73151E+02    2.97128E-28
    4.78630E+02    2.93105E-28
    4.84172E+02    2.89158E-28
    4.89779E+02    2.85285E-28
    4.95450E+02    2.81484E-28
    5.01187E+02    2.77557E-28
    5.06991E+02    2.73380E-28
    5.12861E+02    2.69293E-28
    5.18800E+02    2.65291E-28
    5.24807E+02    2.61371E-28
    5.30884E+02    2.57534E-28
    5.37032E+02    2.53777E-28
    5.43250E+02    2.50100E-28
    5.49541E+02    2.46500E-28
    5.55904E+02    2.42975E-28
    5.62341E+02    2.39524E-28
    5.68853E+02    2.36145E-28
    5.75440E+02    2.32836E-28
    5.82103E+02    2.29597E-28
    5.88844E+02    2.26424E-28
    5.95662E+02    2.23318E-28
    6.02560E+02    2.20276E-28
    6.09537E+02    2.17298E-28
    6.16595E+02    2.14381E-28
    6.23735E+02    2.11519E-28
    6.30957E+02    2.08573E-28
    6.38263E+02    2.05689E-28
    6.45654E+02    2.02865E-28
    6.53131E+02    2.00102E-28
    6.60693E+02    1.97396E-28
    6.68344E+02    1.94748E-28
    6.76083E+02    1.92156E-28
    6.83912E+02    1.89618E-28
    6.91831E+02    1.87135E-28
    6.99842E+02    1.84704E-28
    7.07946E+02    1.82324E-28
    7.16143E+02    1.79995E-28
    7.24436E+02    1.77715E-28
    7.32825E+02    1.75484E-28
    7.41310E+02    1.73301E-28
    7.49894E+02    1.71163E-28
    7.58578E+02    1.69071E-28
    7.67362E+02    1.67022E-28
    7.76247E+02    1.65017E-28
    7.85236E+02    1.62884E-28
    7.94328E+02    1.60786E-28
    8.03526E+02    1.58737E-28
    8.12831E+02    1.56736E-28
    8.22243E+02    1.54781E-28
    8.31764E+02    1.52872E-28
    8.41395E+02    1.51007E-28
    8.51138E+02    1.49186E-28
    8.60994E+02    1.47408E-28
    8.70964E+02    1.45671E-28
    8.81049E+02    1.44396E-28
    8.91251E+02    1.43272E-28
    9.01571E+02    1.42168E-28
    9.12011E+02    1.41081E-28
    9.22571E+02    1.40012E-28
    9.33254E+02    1.38961E-28
    9.44061E+02    1.37928E-28
    9.54993E+02    1.36913E-28
    9.66051E+02    1.35915E-28
    9.77237E+02    1.34866E-28
    9.88553E+02    1.33813E-28
    1.00000E+03    1.32780E-28
    1.01158E+03    1.31766E-28
    1.02329E+03    1.30771E-28
    1.03514E+03    1.29795E-28
    1.04713E+03    1.28837E-28
    1.05925E+03    1.27897E-28
    1.07152E+03    1.26975E-28
    1.08393E+03    1.26071E-28
    1.09648E+03    1.25184E-28
    1.10917E+03    1.24312E-28
    1.12202E+03    1.23458E-28
    1.13501E+03    1.22620E-28
    1.14815E+03    1.21798E-28
    1.16145E+03    1.20993E-28
    1.17490E+03    1.20203E-28
    1.18850E+03    1.19428E-28
    1.20226E+03    1.18670E-28
    1.21619E+03    1.17905E-28
    1.23027E+03    1.17133E-28
    1.24451E+03    1.16378E-28
    1.25893E+03    1.15639E-28
    1.27350E+03    1.14916E-28
    1.28825E+03    1.14208E-28
    1.30317E+03    1.13515E-28
    1.31826E+03    1.12837E-28
    1.33352E+03    1.12174E-28
    1.34896E+03    1.11524E-28
    1.36458E+03    1.10889E-28
    1.38038E+03    1.10267E-28
    1.39637E+03    1.09660E-28
    1.41254E+03    1.09066E-28
    1.42889E+03    1.08486E-28
    1.44544E+03    1.07918E-28
    1.46218E+03    1.07364E-28
    1.47911E+03    1.06823E-28
    1.49624E+03    1.06295E-28
    1.51356E+03    1.05772E-28
    1.53109E+03    1.05246E-28
    1.54882E+03    1.04733E-28
    1.56675E+03    1.04232E-28
    1.58489E+03    1.03744E-28
    1.60325E+03    1.03269E-28
    1.62181E+03    1.02804E-28
    1.64059E+03    1.02351E-28
    1.65959E+03    1.01911E-28
    1.67880E+03    1.01482E-28
    1.69824E+03    1.01064E-28
    1.71791E+03    1.00658E-28
    1.73780E+03    1.00309E-28
    1.75792E+03    9.99719E-29
    1.77828E+03    9.96443E-29
    1.79887E+03    9.93257E-29
    1.81970E+03    9.90164E-29
    1.84077E+03    9.87159E-29
    1.86209E+03    9.84242E-29
    1.88365E+03    9.81374E-29
    1.90546E+03    9.78418E-29
    1.92752E+03    9.75554E-29
    1.94984E+03    9.72756E-29
    1.97242E+03    9.70042E-29
    1.99526E+03    9.67419E-29
    2.01837E+03    9.64883E-29
    2.04174E+03    9.62433E-29
    2.06538E+03    9.60069E-29
    2.08930E+03    9.57790E-29
    2.11349E+03    9.55595E-29
    2.13796E+03    9.53481E-29
    2.16272E+03    9.51451E-29
    2.18776E+03    9.49500E-29
    2.21309E+03    9.47630E-29
    2.23872E+03    9.45838E-29
    2.26464E+03    9.44124E-29
    2.29087E+03    9.42488E-29
    2.31739E+03    9.40927E-29
    2.34423E+03    9.39411E-29
    2.37137E+03    9.37803E-29
    2.39883E+03    9.36274E-29
    2.42661E+03    9.35065E-29
    2.45471E+03    9.34135E-29
    2.48313E+03    9.33268E-29
    2.51189E+03    9.32463E-29
    2.54097E+03    9.31719E-29
    2.57040E+03    9.31036E-29
    2.60016E+03    9.30413E-29
    2.63027E+03    9.29850E-29
    2.66073E+03    9.29346E-29
    2.69153E+03    9.28902E-29
    2.72270E+03    9.28515E-29
    2.75423E+03    9.28187E-29
    2.78612E+03    9.27915E-29
    2.81838E+03    9.27691E-29
    2.85102E+03    9.27485E-29
    2.88403E+03    9.27333E-29
    2.91743E+03    9.27238E-29
    2.95121E+03    9.27179E-29
    2.98538E+03    9.27173E-29
    3.01995E+03    9.27222E-29
    3.05492E+03    9.27324E-29
    3.09030E+03    9.27480E-29
    3.12608E+03    9.27690E-29
    3.16228E+03    9.27953E-29
    3.19890E+03    9.28268E-29
    3.23594E+03    9.28636E-29
    3.27341E+03    9.29055E-29
    3.31131E+03    9.29526E-29
    3.34965E+03    9.30048E-29
    3.38844E+03    9.30633E-29
    3.42768E+03    9.31282E-29
    3.46737E+03    9.31970E-29
    3.50752E+03    9.32704E-29
    3.54813E+03    9.33484E-29
    3.58922E+03    9.34310E-29
    3.63078E+03    9.35181E-29
    3.67282E+03    9.36060E-29
    3.71535E+03    9.36971E-29
    3.75837E+03    9.37930E-29
    3.80189E+03    9.38934E-29
    3.84592E+03    9.39984E-29
    3.89045E+03    9.41080E-29
    3.93550E+03    9.42222E-29
    3.98107E+03    9.43408E-29
    4.02717E+03    9.44640E-29
    4.07380E+03    9.45916E-29
    4.12098E+03    9.47201E-29
    4.16869E+03    9.48501E-29
    4.21696E+03    9.49845E-29
    4.26580E+03    9.51231E-29
    4.31519E+03    9.52661E-29
    4.36516E+03    9.54133E-29
    4.41570E+03    9.55648E-29
    4.46684E+03    9.57205E-29
    4.51856E+03    9.58805E-29
    4.57088E+03    9.60405E-29
    4.62381E+03    9.62020E-29
    4.67735E+03    9.63678E-29
    4.73151E+03    9.65381E-29
    4.78630E+03    9.67204E-29
    4.84172E+03    9.69100E-29
    4.89779E+03    9.71036E-29
    4.95450E+03    9.72988E-29
    5.01187E+03    9.74899E-29
    5.06991E+03    9.76848E-29
    5.12861E+03    9.78835E-29
    5.18800E+03    9.80861E-29
    5.24807E+03    9.82924E-29
    5.30884E+03    9.85025E-29
    5.37032E+03    9.87163E-29
    5.43250E+03    9.89340E-29
    5.49541E+03    9.91553E-29
    5.55904E+03    9.93805E-29
    5.62341E+03    9.96093E-29
    5.68853E+03    9.98419E-29
    5.75440E+03    1.00078E-28
    5.82103E+03    1.00318E-28
    5.88844E+03    1.00562E-28
    5.95662E+03    1.00810E-28
    6.02560E+03    1.01059E-28
    6.09537E+03    1.01311E-28
    6.16595E+03    1.01566E-28
    6.23735E+03    1.01826E-28
    6.30957E+03    1.02089E-28
    6.38263E+03    1.02355E-28
    6.45654E+03    1.02626E-28
    6.53131E+03    1.02899E-28
    6.60693E+03    1.03177E-28
    6.68344E+03    1.03458E-28
    6.76083E+03    1.03745E-28
    6.83912E+03    1.04035E-28
    6.91831E+03    1.04329E-28
    6.99842E+03    1.04626E-28
    7.07946E+03    1.04927E-28
    7.16143E+03    1.05231E-28
    7.24436E+03    1.05538E-28
    7.32825E+03    1.05848E-28
    7.41310E+03    1.06162E-28
    7.49894E+03    1.06480E-28
    7.58578E+03    1.06801E-28
    7.67361E+03    1.07126E-28
    7.76247E+03    1.07454E-28
    7.85236E+03    1.07785E-28
    7.94328E+03    1.08120E-28
    8.03526E+03    1.08459E-28
    8.12831E+03    1.08801E-28
    8.22243E+03    1.09146E-28
    8.31764E+03    1.09495E-28
    8.41395E+03    1.09848E-28
    8.51138E+03    1.10204E-28
    8.60994E+03    1.10563E-28
    8.70964E+03    1.10926E-28
    8.81049E+03    1.11292E-28
    8.91251E+03    1.11652E-28
    9.01571E+03    1.12015E-28
    9.12011E+03    1.12382E-28
    9.22571E+03    1.12753E-28
    9.33254E+03    1.13128E-28
    9.44061E+03    1.13509E-28
    9.54993E+03    1.13894E-28
    9.66051E+03    1.14283E-28
    9.77237E+03    1.14676E-28
    9.88553E+03    1.15072E-28
    1.00000E+04    1.15472E-28
    1.01158E+04    1.15876E-28
    1.02329E+04    1.16283E-28
    1.03514E+04    1.16694E-28
    1.04713E+04    1.17109E-28
    1.05925E+04    1.17530E-28
    1.07152E+04    1.17956E-28
    1.08393E+04    1.18385E-28
    1.09648E+04    1.18817E-28
    1.10917E+04    1.19252E-28
    1.12202E+04    1.19690E-28
    1.13501E+04    1.20132E-28
    1.14815E+04    1.20577E-28
    1.16145E+04    1.21027E-28
    1.17490E+04    1.21480E-28
    1.18850E+04    1.21937E-28
    1.20226E+04    1.22398E-28
    1.21619E+04    1.22862E-28
    1.23027E+04    1.23331E-28
    1.24451E+04    1.23803E-28
    1.25893E+04    1.24279E-28
    1.27350E+04    1.24758E-28
    1.28825E+04    1.25241E-28
    1.30317E+04    1.25728E-28
    1.31826E+04    1.26219E-28
    1.33352E+04    1.26713E-28
    1.34896E+04    1.27211E-28
    1.36458E+04    1.27713E-28
    1.38038E+04    1.28219E-28
    1.39637E+04    1.28728E-28
    1.41254E+04    1.29242E-28
    1.42889E+04    1.29759E-28
    1.44544E+04    1.30280E-28
    1.46218E+04    1.30805E-28
    1.47911E+04    1.31334E-28
    1.49624E+04    1.31866E-28
    1.51356E+04    1.32403E-28
    1.53109E+04    1.32943E-28
    1.54882E+04    1.33486E-28
    1.56675E+04    1.34034E-28
    1.58489E+04    1.34585E-28
    1.60325E+04    1.35140E-28
    1.62181E+04    1.35699E-28
    1.64059E+04    1.36262E-28
    1.65959E+04    1.36828E-28
    1.67880E+04    1.37399E-28
    1.69824E+04    1.37974E-28
    1.71791E+04    1.38553E-28
    1.73780E+04    1.39135E-28
    1.75792E+04    1.39721E-28
    1.77828E+04    1.40312E-28
    1.79887E+04    1.40906E-28
    1.81970E+04    1.41504E-28
    1.84077E+04    1.42107E-28
    1.86209E+04    1.42713E-28
    1.88365E+04    1.43324E-28
    1.90546E+04    1.43939E-28
    1.92752E+04    1.44557E-28
    1.94984E+04    1.45180E-28
    1.97242E+04    1.45807E-28
    1.99526E+04    1.46438E-28
    2.01837E+04    1.47072E-28
    2.04174E+04    1.47712E-28
    2.06538E+04    1.48355E-28
    2.08930E+04    1.49002E-28
    2.11349E+04    1.49654E-28
    2.13796E+04    1.50309E-28
    2.16272E+04    1.50969E-28
    2.18776E+04    1.51633E-28
    2.21309E+04    1.52302E-28
    2.23872E+04    1.52976E-28
    2.26464E+04    1.53657E-28
    2.29087E+04    1.54342E-28
    2.31739E+04    1.55031E-28
    2.34423E+04    1.55725E-28
    2.37137E+04    1.56423E-28
    2.39883E+04    1.57125E-28
    2.42661E+04    1.57831E-28
    2.45471E+04    1.58542E-28
    2.48313E+04    1.59258E-28
    2.51189E+04    1.59977E-28
    2.54097E+04    1.60701E-28
    2.57040E+04    1.61430E-28
    2.60016E+04    1.62163E-28
    2.63027E+04    1.62901E-28
    2.66073E+04    1.63643E-28
    2.69153E+04    1.64393E-28
    2.72270E+04    1.65156E-28
    2.75423E+04    1.65924E-28
    2.78612E+04    1.66697E-28
    2.81838E+04    1.67474E-28
    2.85102E+04    1.68256E-28
    2.88403E+04    1.69042E-28
    2.91743E+04    1.69833E-28
    2.95121E+04    1.70629E-28
    2.98538E+04    1.71430E-28
    3.01995E+04    1.72236E-28
    3.05492E+04    1.73046E-28
    3.09030E+04    1.73862E-28
    3.12608E+04    1.74682E-28
    3.16228E+04    1.75507E-28
    3.19890E+04    1.76337E-28
    3.23594E+04    1.77172E-28
    3.27341E+04    1.78011E-28
    3.31131E+04    1.78854E-28
    3.34965E+04    1.79703E-28
    3.38844E+04    1.80556E-28
    3.42768E+04    1.81415E-28
    3.46737E+04    1.82278E-28
    3.50752E+04    1.83147E-28
    3.54813E+04    1.84021E-28
    3.58922E+04    1.84900E-28
    3.63078E+04    1.85784E-28
    3.67282E+04    1.86673E-28
    3.71535E+04    1.87567E-28
    3.75837E+04    1.88466E-28
    3.80189E+04    1.89371E-28
    3.84592E+04    1.90281E-28
    3.89045E+04    1.91196E-28
    3.93550E+04    1.92116E-28
    3.98107E+04    1.93041E-28
    4.02717E+04    1.93972E-28
    4.07380E+04    1.94907E-28
    4.12098E+04    1.95848E-28
    4.16869E+04    1.96795E-28
    4.21696E+04    1.97747E-28
    4.26580E+04    1.98704E-28
    4.31519E+04    1.99667E-28
    4.36516E+04    2.00635E-28
    4.41570E+04    2.01609E-28
    4.46684E+04    2.02588E-28
    4.51856E+04    2.03573E-28
    4.57088E+04    2.04563E-28
    4.62381E+04    2.05559E-28
    4.67735E+04    2.06561E-28
    4.73151E+04    2.07571E-28
    4.78630E+04    2.08594E-28
    4.84172E+04    2.09624E-28
    4.89779E+04    2.10659E-28
    4.95450E+04    2.11700E-28
    5.01187E+04    2.12746E-28
    5.06991E+04    2.13799E-28
    5.12861E+04    2.14858E-28
    5.18800E+04    2.15922E-28
    5.24807E+04    2.16993E-28
    5.30884E+04    2.18070E-28
    5.37032E+04    2.19152E-28
    5.43250E+04    2.20241E-28
    5.49541E+04    2.21336E-28
    5.55904E+04    2.22437E-28
    5.62341E+04    2.23544E-28
    5.68853E+04    2.24658E-28
    5.75440E+04    2.25780E-28
    5.82103E+04    2.26909E-28
    5.88844E+04    2.28044E-28
    5.95662E+04    2.29186E-28
    6.02560E+04    2.30334E-28
    6.09537E+04    2.31488E-28
    6.16595E+04    2.32649E-28
    6.23735E+04    2.33816E-28
    6.30957E+04    2.34990E-28
    6.38263E+04    2.36171E-28
    6.45654E+04    2.37358E-28
    6.53131E+04    2.38551E-28
    6.60693E+04    2.39751E-28
    6.68344E+04    2.40958E-28
    6.76083E+04    2.42172E-28
    6.83912E+04    2.43392E-28
    6.91831E+04    2.44619E-28
    6.99842E+04    2.45851E-28
    7.07946E+04    2.47091E-28
    7.16143E+04    2.48337E-28
    7.24436E+04    2.49591E-28
    7.32825E+04    2.50851E-28
    7.41310E+04    2.52118E-28
    7.49894E+04    2.53393E-28
    7.58578E+04    2.54674E-28
    7.67361E+04    2.55962E-28
    7.76247E+04    2.57258E-28
    7.85236E+04    2.58560E-28
    7.94328E+04    2.59870E-28
    8.03526E+04    2.61187E-28
    8.12831E+04    2.62511E-28
    8.22243E+04    2.63842E-28
    8.31764E+04    2.65191E-28
    8.41395E+04    2.66570E-28
    8.51138E+04    2.67955E-28
    8.60994E+04    2.69349E-28
    8.70964E+04    2.70750E-28
    8.81049E+04    2.72160E-28
    8.91251E+04    2.73577E-28
    9.01571E+04    2.75002E-28
    9.12011E+04    2.76435E-28
    9.22571E+04    2.77876E-28
    9.33254E+04    2.79325E-28
    9.44061E+04    2.80782E-28
    9.54993E+04    2.82247E-28
    9.66051E+04    2.83721E-28
    9.77237E+04    2.85203E-28
    9.88553E+04    2.86692E-28
